"","time","ecg"
"1",0.31,-0.104773
"2",0.315555555555556,-0.093136
"3",0.321111111111111,-0.0815
"4",0.326666666666667,-0.116409
"5",0.332222222222222,-0.0815
"6",0.337777777777778,-0.116409
"7",0.343333333333333,-0.104773
"8",0.348888888888889,-0.093136
"9",0.354444444444444,-0.093136
"10",0.36,-0.093136
"11",0.365555555555556,-0.093136
"12",0.371111111111111,-0.093136
"13",0.376666666666667,-0.093136
"14",0.382222222222222,-0.093136
"15",0.387777777777778,-0.058227
"16",0.393333333333333,-0.093136
"17",0.398888888888889,-0.104773
"18",0.404444444444444,-0.093136
"19",0.41,-0.0815
"20",0.415555555555556,-0.093136
"21",0.421111111111111,-0.093136
"22",0.426666666666667,-0.104773
"23",0.432222222222222,-0.139682
"24",0.437777777777778,-0.151318
"25",0.443333333333333,-0.162955
"26",0.448888888888889,-0.197864
"27",0.454444444444444,-0.232773
"28",0.46,-0.267682
"29",0.465555555555556,-0.3375
"30",0.471111111111111,-0.407318
"31",0.476666666666667,-0.418955
"32",0.482222222222222,-0.453864
"33",0.487777777777778,-0.488773
"34",0.493333333333333,-0.500409
"35",0.498888888888889,-0.535318
"36",0.504444444444444,-0.546955
"37",0.51,-0.535318
"38",0.515555555555556,-0.535318
"39",0.521111111111111,-0.523682
"40",0.526666666666667,-0.523682
"41",0.532222222222222,-0.488773
"42",0.537777777777778,-0.477136
"43",0.543333333333333,-0.442227
"44",0.548888888888889,-0.442227
"45",0.554444444444444,-0.407318
"46",0.56,-0.372409
"47",0.565555555555556,-0.360773
"48",0.571111111111111,-0.325864
"49",0.576666666666667,-0.3375
"50",0.582222222222222,-0.3375
"51",0.587777777777778,-0.267682
"52",0.593333333333333,-0.256045
"53",0.598888888888889,-0.256045
"54",0.604444444444444,-0.290955
"55",0.61,-0.256045
"56",0.615555555555556,-0.244409
"57",0.621111111111111,-0.2095
"58",0.626666666666667,-0.2095
"59",0.632222222222222,-0.221136
"60",0.637777777777778,-0.221136
"61",0.643333333333333,-0.221136
"62",0.648888888888889,-0.186227
"63",0.654444444444444,-0.221136
"64",0.66,-0.186227
"65",0.665555555555555,-0.221136
"66",0.671111111111111,-0.221136
"67",0.676666666666667,-0.186227
"68",0.682222222222222,-0.256045
"69",0.687777777777778,-0.267682
"70",0.693333333333333,-0.232773
"71",0.698888888888889,-0.244409
"72",0.704444444444444,-0.244409
"73",0.71,-0.256045
"74",0.715555555555556,-0.256045
"75",0.721111111111111,-0.244409
"76",0.726666666666667,-0.232773
"77",0.732222222222222,-0.232773
"78",0.737777777777778,-0.267682
"79",0.743333333333333,-0.256045
"80",0.748888888888889,-0.267682
"81",0.754444444444444,-0.256045
"82",0.76,-0.267682
"83",0.765555555555556,-0.256045
"84",0.771111111111111,-0.244409
"85",0.776666666666667,-0.256045
"86",0.782222222222222,-0.221136
"87",0.787777777777778,-0.232773
"88",0.793333333333333,-0.244409
"89",0.798888888888889,-0.279318
"90",0.804444444444444,-0.314227
"91",0.81,-0.279318
"92",0.815555555555556,-0.244409
"93",0.821111111111111,-0.174591
"94",0.826666666666667,-0.2095
"95",0.832222222222222,-0.279318
"96",0.837777777777778,-0.2095
"97",0.843333333333333,-0.174591
"98",0.848888888888889,-0.244409
"99",0.854444444444444,-0.104773
"100",0.86,-0.093136
"101",0.865555555555555,-0.128045
"102",0.871111111111111,-0.162955
"103",0.876666666666667,-0.232773
"104",0.882222222222222,-0.302591
"105",0.887777777777778,-0.232773
"106",0.893333333333333,-0.197864
"107",0.898888888888889,-0.232773
"108",0.904444444444444,-0.267682
"109",0.91,-0.302591
"110",0.915555555555555,-0.314227
"111",0.921111111111111,-0.325864
"112",0.926666666666667,-0.325864
"113",0.932222222222222,-0.290955
"114",0.937777777777778,-0.302591
"115",0.943333333333333,-0.3375
"116",0.948888888888889,-0.325864
"117",0.954444444444444,-0.290955
"118",0.96,-0.325864
"119",0.965555555555556,-0.325864
"120",0.971111111111111,-0.4655
"121",0.976666666666667,-0.395682
"122",0.982222222222222,-0.151318
"123",0.987777777777778,0.279273
"124",0.993333333333333,0.523636
"125",0.998888888888889,0.279273
"126",1.00444444444444,-0.523682
"127",1.01,-1.338227
"128",1.01555555555556,-1.268409
"129",1.02111111111111,-1.2335
"130",1.02666666666667,-0.989136
"131",1.03222222222222,-0.744773
"132",1.03777777777778,-0.605136
"133",1.04333333333333,-0.4655
"134",1.04888888888889,-0.221136
"135",1.05444444444444,-0.151318
"136",1.06,-0.139682
"137",1.06555555555556,-0.2095
"138",1.07111111111111,-0.174591
"139",1.07666666666667,-0.139682
"140",1.08222222222222,-0.151318
"141",1.08777777777778,-0.186227
"142",1.09333333333333,-0.221136
"143",1.09888888888889,-0.0815
"144",1.10444444444444,-0.093136
"145",1.11,-0.128045
"146",1.11555555555556,-0.093136
"147",1.12111111111111,-0.162955
"148",1.12666666666667,-0.174591
"149",1.13222222222222,-0.2095
"150",1.13777777777778,-0.069864
"151",1.14333333333333,-4.5e-05
"152",1.14888888888889,-0.034955
"153",1.15444444444444,-0.104773
"154",1.16,-0.244409
"155",1.16555555555556,-0.104773
"156",1.17111111111111,-0.174591
"157",1.17666666666667,-0.418955
"158",1.18222222222222,-0.384045
"159",1.18777777777778,-0.349136
"160",1.19333333333333,-0.2095
"161",1.19888888888889,-0.069864
"162",1.20444444444444,0.058182
"163",1.21,0.128
"164",1.21555555555556,0.058182
"165",1.22111111111111,-0.069864
"166",1.22666666666667,-0.104773
"167",1.23222222222222,-0.174591
"168",1.23777777777778,-0.139682
"169",1.24333333333333,-0.174591
"170",1.24888888888889,-0.244409
"171",1.25444444444444,-0.314227
"172",1.26,-0.325864
"173",1.26555555555556,-0.360773
"174",1.27111111111111,-0.430591
"175",1.27666666666667,-0.4655
"176",1.28222222222222,-0.430591
"177",1.28777777777778,-0.500409
"178",1.29333333333333,-0.570227
"179",1.29888888888889,-0.581864
"180",1.30444444444444,-0.616773
"181",1.31,-0.651682
"182",1.31555555555556,-0.581864
"183",1.32111111111111,-0.512045
"184",1.32666666666667,-0.500409
"185",1.33222222222222,-0.512045
"186",1.33777777777778,-0.477136
"187",1.34333333333333,-0.488773
"188",1.34888888888889,-0.349136
"189",1.35444444444444,-0.314227
"190",1.36,-0.349136
"191",1.36555555555556,-0.279318
"192",1.37111111111111,-0.314227
"193",1.37666666666667,-0.384045
"194",1.38222222222222,-0.349136
"195",1.38777777777778,-0.279318
"196",1.39333333333333,-0.2095
"197",1.39888888888889,-0.174591
"198",1.40444444444444,-0.244409
"199",1.41,-0.314227
"200",1.41555555555556,-0.244409
"201",1.42111111111111,-0.279318
"202",1.42666666666667,-0.244409
"203",1.43222222222222,-0.244409
"204",1.43777777777778,-0.2095
"205",1.44333333333333,-0.221136
"206",1.44888888888889,-0.256045
"207",1.45444444444444,-0.186227
"208",1.46,-0.256045
"209",1.46555555555556,-0.221136
"210",1.47111111111111,-0.232773
"211",1.47666666666667,-0.372409
"212",1.48222222222222,-0.302591
"213",1.48777777777778,-0.302591
"214",1.49333333333333,-0.267682
"215",1.49888888888889,-0.128045
"216",1.50444444444444,-0.058227
"217",1.51,-0.128045
"218",1.51555555555556,-0.267682
"219",1.52111111111111,-0.197864
"220",1.52666666666667,-0.128045
"221",1.53222222222222,-0.139682
"222",1.53777777777778,-0.128045
"223",1.54333333333333,-0.162955
"224",1.54888888888889,-0.162955
"225",1.55444444444444,-0.093136
"226",1.56,-0.128045
"227",1.56555555555556,-0.197864
"228",1.57111111111111,-0.3375
"229",1.57666666666667,-0.197864
"230",1.58222222222222,-0.162955
"231",1.58777777777778,-0.128045
"232",1.59333333333333,-0.116409
"233",1.59888888888889,-0.0815
"234",1.60444444444444,-0.116409
"235",1.61,-0.116409
"236",1.61555555555556,-0.128045
"237",1.62111111111111,-0.162955
"238",1.62666666666667,-0.093136
"239",1.63222222222222,-0.023318
"240",1.63777777777778,-0.058227
"241",1.64333333333333,0
"242",1.64888888888889,0.034909
"243",1.65444444444444,0
"244",1.66,-0.058227
"245",1.66555555555556,-0.093136
"246",1.67111111111111,-0.128045
"247",1.67666666666667,-0.116409
"248",1.68222222222222,-0.128045
"249",1.68777777777778,-0.116409
"250",1.69333333333333,-0.116409
"251",1.69888888888889,-0.151318
"252",1.70444444444444,-0.116409
"253",1.71,-0.151318
"254",1.71555555555556,-0.139682
"255",1.72111111111111,-0.151318
"256",1.72666666666667,-0.186227
"257",1.73222222222222,-0.116409
"258",1.73777777777778,-0.116409
"259",1.74333333333333,-0.116409
"260",1.74888888888889,-0.151318
"261",1.75444444444444,-0.221136
"262",1.76,-0.290955
"263",1.76555555555556,-0.151318
"264",1.77111111111111,0.279273
"265",1.77666666666667,0.721455
"266",1.78222222222222,0.477091
"267",1.78777777777778,-0.325864
"268",1.79333333333333,-1.140409
"269",1.79888888888889,-1.175318
"270",1.80444444444444,-1.1055
"271",1.81,-0.861136
"272",1.81555555555556,-0.616773
"273",1.82111111111111,-0.372409
"274",1.82666666666667,-0.232773
"275",1.83222222222222,-0.093136
"276",1.83777777777778,-0.023318
"277",1.84333333333333,0
"278",1.84888888888889,-0.023318
"279",1.85444444444444,0
"280",1.86,0
"281",1.86555555555556,0.034909
"282",1.87111111111111,0.069818
"283",1.87666666666667,0
"284",1.88222222222222,0.011636
"285",1.88777777777778,0.081455
"286",1.89333333333333,0.011636
"287",1.89888888888889,0.081455
"288",1.90444444444444,0.116364
"289",1.91,0.104727
"290",1.91555555555556,0.034909
"291",1.92111111111111,0.034909
"292",1.92666666666667,0.069818
"293",1.93222222222222,0.069818
"294",1.93777777777778,0.081455
"295",1.94333333333333,0.069818
"296",1.94888888888889,0.034909
"297",1.95444444444444,0.174545
"298",1.96,0.174545
"299",1.96555555555556,0.104727
"300",1.97111111111111,0.174545
"301",1.97666666666667,0.139636
"302",1.98222222222222,0.128
"303",1.98777777777778,0.116364
"304",1.99333333333333,0.081455
"305",1.99888888888889,0.069818
"306",2.00444444444444,0.139636
"307",2.01,0.151273
"308",2.01555555555556,0.116364
"309",2.02111111111111,0.046545
"310",2.02666666666667,0.046545
"311",2.03222222222222,0.011636
"312",2.03777777777778,-0.046591
"313",2.04333333333333,-0.0815
"314",2.04888888888889,-0.116409
"315",2.05444444444444,-0.104773
"316",2.06,-0.139682
"317",2.06555555555556,-0.2095
"318",2.07111111111111,-0.244409
"319",2.07666666666667,-0.279318
"320",2.08222222222222,-0.279318
"321",2.08777777777778,-0.314227
"322",2.09333333333333,-0.325864
"323",2.09888888888889,-0.290955
"324",2.10444444444444,-0.302591
"325",2.11,-0.267682
"326",2.11555555555556,-0.267682
"327",2.12111111111111,-0.232773
"328",2.12666666666667,-0.162955
"329",2.13222222222222,-0.162955
"330",2.13777777777778,-0.128045
"331",2.14333333333333,-0.162955
"332",2.14888888888889,-0.151318
"333",2.15444444444444,-0.0815
"334",2.16,-0.046591
"335",2.16555555555556,-0.034955
"336",2.17111111111111,-0.023318
"337",2.17666666666667,-0.011682
"338",2.18222222222222,0.046545
"339",2.18777777777778,0.011636
"340",2.19333333333333,-0.011682
"341",2.19888888888889,0.011636
"342",2.20444444444444,-0.011682
"343",2.21,0.011636
"344",2.21555555555556,0.023273
"345",2.22111111111111,0.023273
"346",2.22666666666667,0.034909
"347",2.23222222222222,0
"348",2.23777777777778,0.011636
"349",2.24333333333333,0.011636
"350",2.24888888888889,0
"351",2.25444444444444,0.034909
"352",2.26,0.034909
"353",2.26555555555556,0
"354",2.27111111111111,0.034909
"355",2.27666666666667,-0.023318
"356",2.28222222222222,0.034909
"357",2.28777777777778,0.069818
"358",2.29333333333333,0.058182
"359",2.29888888888889,0.023273
"360",2.30444444444444,0.023273
"361",2.31,0.058182
"362",2.31555555555556,0.093091
"363",2.32111111111111,0.058182
"364",2.32666666666667,0.046545
"365",2.33222222222222,0.011636
"366",2.33777777777778,0.011636
"367",2.34333333333333,0.011636
"368",2.34888888888889,0.023273
"369",2.35444444444444,-4.5e-05
"370",2.36,-0.011682
"371",2.36555555555556,0.011636
"372",2.37111111111111,0.023273
"373",2.37666666666667,0.058182
"374",2.38222222222222,0.023273
"375",2.38777777777778,0.023273
"376",2.39333333333333,0.058182
"377",2.39888888888889,0.069818
"378",2.40444444444444,0.034909
"379",2.41,0.069818
"380",2.41555555555556,0.104727
"381",2.42111111111111,0.139636
"382",2.42666666666667,0.174545
"383",2.43222222222222,0.174545
"384",2.43777777777778,0.139636
"385",2.44333333333333,0.174545
"386",2.44888888888889,0.104727
"387",2.45444444444444,0.069818
"388",2.46,0
"389",2.46555555555556,0.069818
"390",2.47111111111111,0.034909
"391",2.47666666666667,0.034909
"392",2.48222222222222,0
"393",2.48777777777778,0.034909
"394",2.49333333333333,-0.023318
"395",2.49888888888889,0.034909
"396",2.50444444444444,0
"397",2.51,-4.5e-05
"398",2.51555555555556,-0.011682
"399",2.52111111111111,0.011636
"400",2.52666666666667,-0.116409
"401",2.53222222222222,-0.151318
"402",2.53777777777778,-0.0815
"403",2.54333333333333,-0.011682
"404",2.54888888888889,-0.011682
"405",2.55444444444444,0.046545
"406",2.56,0.290909
"407",2.56555555555556,0.733091
"408",2.57111111111111,1.175273
"409",2.57666666666667,0.733091
"410",2.58222222222222,-0.069864
"411",2.58777777777778,-0.884409
"412",2.59333333333333,-1.024045
"413",2.59888888888889,-0.884409
"414",2.60444444444444,-0.640045
"415",2.61,-0.395682
"416",2.61555555555556,-0.151318
"417",2.62111111111111,0.081455
"418",2.62666666666667,0.081455
"419",2.63222222222222,0.011636
"420",2.63777777777778,-0.011682
"421",2.64333333333333,0.116364
"422",2.64888888888889,0.256
"423",2.65444444444444,0.186182
"424",2.66,0.046545
"425",2.66555555555556,0.186182
"426",2.67111111111111,0.221091
"427",2.67666666666667,0.360727
"428",2.68222222222222,0.325818
"429",2.68777777777778,0.360727
"430",2.69333333333333,0.290909
"431",2.69888888888889,0.279273
"432",2.70444444444444,0.267636
"433",2.71,0.302545
"434",2.71555555555556,0.267636
"435",2.72111111111111,0.197818
"436",2.72666666666667,0.162909
"437",2.73222222222222,0.197818
"438",2.73777777777778,0.267636
"439",2.74333333333333,0.302545
"440",2.74888888888889,0.162909
"441",2.75444444444444,0.174545
"442",2.76,0.209455
"443",2.76555555555556,0.244364
"444",2.77111111111111,0.232727
"445",2.77666666666667,0.302545
"446",2.78222222222222,0.302545
"447",2.78777777777778,0.232727
"448",2.79333333333333,0.302545
"449",2.79888888888889,0.267636
"450",2.80444444444444,0.267636
"451",2.81,0.232727
"452",2.81555555555556,0.232727
"453",2.82111111111111,0.197818
"454",2.82666666666667,0.128
"455",2.83222222222222,-4.5e-05
"456",2.83777777777778,-0.069864
"457",2.84333333333333,0.058182
"458",2.84888888888889,-0.069864
"459",2.85444444444444,-0.314227
"460",2.86,-0.302591
"461",2.86555555555556,-0.267682
"462",2.87111111111111,-0.232773
"463",2.87666666666667,-0.093136
"464",2.88222222222222,-0.093136
"465",2.88777777777778,-0.128045
"466",2.89333333333333,-0.267682
"467",2.89888888888889,-0.302591
"468",2.90444444444444,-0.232773
"469",2.91,0
"470",2.91555555555556,0.069818
"471",2.92111111111111,0.104727
"472",2.92666666666667,0.034909
"473",2.93222222222222,0.046545
"474",2.93777777777778,0.116364
"475",2.94333333333333,0.256
"476",2.94888888888889,0.186182
"477",2.95444444444444,0.186182
"478",2.96,0.046545
"479",2.96555555555556,-0.011682
"480",2.97111111111111,0.011636
"481",2.97666666666667,0.151273
"482",2.98222222222222,0.221091
"483",2.98777777777778,0.290909
"484",2.99333333333333,0.302545
"485",2.99888888888889,0.290909
"486",3.00444444444444,0.360727
"487",3.01,0.290909
"488",3.01555555555556,0.046545
"489",3.02111111111111,0.011636
"490",3.02666666666667,0.256
"491",3.03222222222222,0.290909
"492",3.03777777777778,0.302545
"493",3.04333333333333,0.232727
"494",3.04888888888889,0.232727
"495",3.05444444444444,0.372364
"496",3.06,0.384
"497",3.06555555555556,0.139636
"498",3.07111111111111,0
"499",3.07666666666667,0.139636
"500",3.08222222222222,0.384
"501",3.08777777777778,0.418909
"502",3.09333333333333,0.279273
"503",3.09888888888889,0.139636
"504",3.10444444444444,0.139636
"505",3.11,0.279273
"506",3.11555555555556,0.279273
"507",3.12111111111111,0.244364
"508",3.12666666666667,0.314182
"509",3.13222222222222,0.453818
"510",3.13777777777778,0.523636
"511",3.14333333333333,0.453818
"512",3.14888888888889,0.384
"513",3.15444444444444,0.244364
"514",3.16,0.174545
"515",3.16555555555556,0.186182
"516",3.17111111111111,0.256
"517",3.17666666666667,0.325818
"518",3.18222222222222,0.465455
"519",3.18777777777778,0.535273
"520",3.19333333333333,0.395636
"521",3.19888888888889,0.465455
"522",3.20444444444444,0.605091
"523",3.21,0.674909
"524",3.21555555555556,0.430545
"525",3.22111111111111,0.290909
"526",3.22666666666667,0.325818
"527",3.23222222222222,0.360727
"528",3.23777777777778,0.221091
"529",3.24333333333333,0.209455
"530",3.24888888888889,0.349091
"531",3.25444444444444,0.488727
"532",3.26,0.418909
"533",3.26555555555556,0.279273
"534",3.27111111111111,0.209455
"535",3.27666666666667,0.197818
"536",3.28222222222222,0.209455
"537",3.28777777777778,0.244364
"538",3.29333333333333,0.314182
"539",3.29888888888889,0.384
"540",3.30444444444444,0.384
"541",3.31,0.349091
"542",3.31555555555556,0.360727
"543",3.32111111111111,0.802909
"544",3.32666666666667,1.245091
"545",3.33222222222222,1.105455
"546",3.33777777777778,0.290909
"547",3.34333333333333,-0.512045
"548",3.34888888888889,-0.581864
"549",3.35444444444444,-0.512045
"550",3.36,-0.442227
"551",3.36555555555556,-0.302591
"552",3.37111111111111,-0.058227
"553",3.37666666666667,0.174545
"554",3.38222222222222,0.418909
"555",3.38777777777778,0.453818
"556",3.39333333333333,0.418909
"557",3.39888888888889,0.488727
"558",3.40444444444444,0.477091
"559",3.41,0.512
"560",3.41555555555556,0.500364
"561",3.42111111111111,0.64
"562",3.42666666666667,0.605091
"563",3.43222222222222,0.64
"564",3.43777777777778,0.500364
"565",3.44333333333333,0.465455
"566",3.44888888888889,0.500364
"567",3.45444444444444,0.64
"568",3.46,0.628364
"569",3.46555555555556,0.628364
"570",3.47111111111111,0.558545
"571",3.47666666666667,0.628364
"572",3.48222222222222,0.698182
"573",3.48777777777778,0.558545
"574",3.49333333333333,0.628364
"575",3.49888888888889,0.616727
"576",3.50444444444444,0.686545
"577",3.51,0.686545
"578",3.51555555555556,0.546909
"579",3.52111111111111,0.407273
"580",3.52666666666667,0.651636
"581",3.53222222222222,0.721455
"582",3.53777777777778,0.733091
"583",3.54333333333333,0.663273
"584",3.54888888888889,0.523636
"585",3.55444444444444,0.453818
"586",3.56,0.593455
"587",3.56555555555556,0.663273
"588",3.57111111111111,0.802909
"589",3.57666666666667,0.558545
"590",3.58222222222222,0.418909
"591",3.58777777777778,0.384
"592",3.59333333333333,0.523636
"593",3.59888888888889,0.558545
"594",3.60444444444444,0.418909
"595",3.61,0.174545
"596",3.61555555555556,0.174545
"597",3.62111111111111,0.162909
"598",3.62666666666667,0.197818
"599",3.63222222222222,0.232727
"600",3.63777777777778,0.221091
"601",3.64333333333333,0.209455
"602",3.64888888888889,0.279273
"603",3.65444444444444,0.314182
"604",3.66,0.244364
"605",3.66555555555556,0.104727
"606",3.67111111111111,0.139636
"607",3.67666666666667,0.279273
"608",3.68222222222222,0.418909
"609",3.68777777777778,0.453818
"610",3.69333333333333,0.418909
"611",3.69888888888889,0.384
"612",3.70444444444444,0.418909
"613",3.71,0.418909
"614",3.71555555555556,0.488727
"615",3.72111111111111,0.523636
"616",3.72666666666667,0.593455
"617",3.73222222222222,0.558545
"618",3.73777777777778,0.570182
"619",3.74333333333333,0.535273
"620",3.74888888888889,0.500364
"621",3.75444444444444,0.465455
"622",3.76,0.500364
"623",3.76555555555556,0.570182
"624",3.77111111111111,0.500364
"625",3.77666666666667,0.570182
"626",3.78222222222222,0.64
"627",3.78777777777778,0.570182
"628",3.79333333333333,0.430545
"629",3.79888888888889,0.500364
"630",3.80444444444444,0.512
"631",3.81,0.546909
"632",3.81555555555556,0.512
"633",3.82111111111111,0.581818
"634",3.82666666666667,0.546909
"635",3.83222222222222,0.546909
"636",3.83777777777778,0.512
"637",3.84333333333333,0.546909
"638",3.84888888888889,0.512
"639",3.85444444444444,0.500364
"640",3.86,0.465455
"641",3.86555555555556,0.535273
"642",3.87111111111111,0.605091
"643",3.87666666666667,0.570182
"644",3.88222222222222,0.535273
"645",3.88777777777778,0.570182
"646",3.89333333333333,0.535273
"647",3.89888888888889,0.570182
"648",3.90444444444444,0.430545
"649",3.91,0.465455
"650",3.91555555555556,0.430545
"651",3.92111111111111,0.570182
"652",3.92666666666667,0.64
"653",3.93222222222222,0.674909
"654",3.93777777777778,0.64
"655",3.94333333333333,0.628364
"656",3.94888888888889,0.64
"657",3.95444444444444,0.651636
"658",3.96,0.581818
"659",3.96555555555556,0.512
"660",3.97111111111111,0.523636
"661",3.97666666666667,0.523636
"662",3.98222222222222,0.453818
"663",3.98777777777778,0.442182
"664",3.99333333333333,0.477091
"665",3.99888888888889,0.465455
"666",4.00444444444444,0.477091
"667",4.01,0.407273
"668",4.01555555555556,0.372364
"669",4.02111111111111,0.407273
"670",4.02666666666667,0.477091
"671",4.03222222222222,0.512
"672",4.03777777777778,0.442182
"673",4.04333333333333,0.477091
"674",4.04888888888889,0.477091
"675",4.05444444444444,0.407273
"676",4.06,0.337455
"677",4.06555555555556,0.477091
"678",4.07111111111111,0.919273
"679",4.07666666666667,1.163636
"680",4.08222222222222,1.233455
"681",4.08777777777778,0.418909
"682",4.09333333333333,-0.384045
"683",4.09888888888889,-0.523682
"684",4.10444444444444,-0.512045
"685",4.11,-0.372409
"686",4.11555555555555,-0.128045
"687",4.12111111111111,-0.058227
"688",4.12666666666667,0.174545
"689",4.13222222222222,0.314182
"690",4.13777777777778,0.453818
"691",4.14333333333333,0.523636
"692",4.14888888888889,0.558545
"693",4.15444444444444,0.523636
"694",4.16,0.558545
"695",4.16555555555555,0.546909
"696",4.17111111111111,0.558545
"697",4.17666666666667,0.593455
"698",4.18222222222222,0.628364
"699",4.18777777777778,0.593455
"700",4.19333333333333,0.581818
"701",4.19888888888889,0.581818
"702",4.20444444444444,0.570182
"703",4.21,0.605091
"704",4.21555555555555,0.605091
"705",4.22111111111111,0.616727
"706",4.22666666666667,0.605091
"707",4.23222222222222,0.593455
"708",4.23777777777778,0.593455
"709",4.24333333333333,0.628364
"710",4.24888888888889,0.628364
"711",4.25444444444444,0.616727
"712",4.26,0.581818
"713",4.26555555555556,0.616727
"714",4.27111111111111,0.651636
"715",4.27666666666667,0.616727
"716",4.28222222222222,0.581818
"717",4.28777777777778,0.651636
"718",4.29333333333333,0.64
"719",4.29888888888889,0.64
"720",4.30444444444444,0.605091
"721",4.31,0.570182
"722",4.31555555555555,0.570182
"723",4.32111111111111,0.558545
"724",4.32666666666667,0.523636
"725",4.33222222222222,0.488727
"726",4.33777777777778,0.453818
"727",4.34333333333333,0.418909
"728",4.34888888888889,0.384
"729",4.35444444444444,0.314182
"730",4.36,0.279273
"731",4.36555555555555,0.244364
"732",4.37111111111111,0.209455
"733",4.37666666666667,0.209455
"734",4.38222222222222,0.174545
"735",4.38777777777778,0.162909
"736",4.39333333333333,0.151273
"737",4.39888888888889,0.186182
"738",4.40444444444444,0.197818
"739",4.41,0.186182
"740",4.41555555555555,0.174545
"741",4.42111111111111,0.209455
"742",4.42666666666667,0.244364
"743",4.43222222222222,0.244364
"744",4.43777777777778,0.279273
"745",4.44333333333333,0.314182
"746",4.44888888888889,0.314182
"747",4.45444444444444,0.349091
"748",4.46,0.337455
"749",4.46555555555555,0.372364
"750",4.47111111111111,0.384
"751",4.47666666666667,0.384
"752",4.48222222222222,0.384
"753",4.48777777777778,0.384
"754",4.49333333333333,0.453818
"755",4.49888888888889,0.488727
"756",4.50444444444444,0.453818
"757",4.51,0.418909
"758",4.51555555555555,0.430545
"759",4.52111111111111,0.430545
"760",4.52666666666667,0.465455
"761",4.53222222222222,0.430545
"762",4.53777777777778,0.430545
"763",4.54333333333333,0.418909
"764",4.54888888888889,0.407273
"765",4.55444444444444,0.407273
"766",4.56,0.407273
"767",4.56555555555555,0.407273
"768",4.57111111111111,0.372364
"769",4.57666666666667,0.372364
"770",4.58222222222222,0.384
"771",4.58777777777778,0.372364
"772",4.59333333333333,0.372364
"773",4.59888888888889,0.360727
"774",4.60444444444444,0.372364
"775",4.61,0.337455
"776",4.61555555555555,0.349091
"777",4.62111111111111,0.349091
"778",4.62666666666667,0.349091
"779",4.63222222222222,0.337455
"780",4.63777777777778,0.337455
"781",4.64333333333333,0.325818
"782",4.64888888888889,0.360727
"783",4.65444444444444,0.325818
"784",4.66,0.360727
"785",4.66555555555555,0.430545
"786",4.67111111111111,0.465455
"787",4.67666666666667,0.500364
"788",4.68222222222222,0.500364
"789",4.68777777777778,0.488727
"790",4.69333333333333,0.349091
"791",4.69888888888889,0.337455
"792",4.70444444444444,0.302545
"793",4.71,0.314182
"794",4.71555555555555,0.279273
"795",4.72111111111111,0.244364
"796",4.72666666666667,0.244364
"797",4.73222222222222,0.209455
"798",4.73777777777778,0.209455
"799",4.74333333333333,0.221091
"800",4.74888888888889,0.186182
"801",4.75444444444444,0.186182
"802",4.76,0.174545
"803",4.76555555555555,0.186182
"804",4.77111111111111,0.197818
"805",4.77666666666667,0.197818
"806",4.78222222222222,0.162909
"807",4.78777777777778,0.174545
"808",4.79333333333333,0.139636
"809",4.79888888888889,0.209455
"810",4.80444444444444,0.453818
"811",4.81,0.896
"812",4.81555555555555,1.140364
"813",4.82111111111111,0.698182
"814",4.82666666666667,-0.104773
"815",4.83222222222222,-0.919318
"816",4.83777777777778,-0.884409
"817",4.84333333333333,-0.744773
"818",4.84888888888889,-0.500409
"819",4.85444444444444,-0.360773
"820",4.86,-0.116409
"821",4.86555555555555,0.011636
"822",4.87111111111111,0.151273
"823",4.87666666666667,0.221091
"824",4.88222222222222,0.232727
"825",4.88777777777778,0.232727
"826",4.89333333333333,0.232727
"827",4.89888888888889,0.244364
"828",4.90444444444444,0.244364
"829",4.91,0.256
"830",4.91555555555555,0.267636
"831",4.92111111111111,0.302545
"832",4.92666666666667,0.267636
"833",4.93222222222222,0.279273
"834",4.93777777777778,0.267636
"835",4.94333333333333,0.267636
"836",4.94888888888889,0.279273
"837",4.95444444444444,0.290909
"838",4.96,0.290909
"839",4.96555555555555,0.302545
"840",4.97111111111111,0.267636
"841",4.97666666666667,0.302545
"842",4.98222222222222,0.337455
"843",4.98777777777778,0.302545
"844",4.99333333333333,0.302545
"845",4.99888888888889,0.290909
"846",5.00444444444444,0.279273
"847",5.01,0.314182
"848",5.01555555555555,0.302545
"849",5.02111111111111,0.302545
"850",5.02666666666667,0.302545
"851",5.03222222222222,0.302545
"852",5.03777777777778,0.290909
"853",5.04333333333333,0.256
"854",5.04888888888889,0.256
"855",5.05444444444444,0.221091
"856",5.06,0.232727
"857",5.06555555555555,0.197818
"858",5.07111111111111,0.162909
"859",5.07666666666667,0.128
"860",5.08222222222222,0.093091
"861",5.08777777777778,0.058182
"862",5.09333333333333,0.023273
"863",5.09888888888889,-0.034955
"864",5.10444444444444,-0.069864
"865",5.11,-0.058227
"866",5.11555555555555,-0.046591
"867",5.12111111111111,-0.0815
"868",5.12666666666667,-0.093136
"869",5.13222222222222,-0.104773
"870",5.13777777777778,-0.093136
"871",5.14333333333333,-0.0815
"872",5.14888888888889,-0.046591
"873",5.15444444444444,-0.034955
"874",5.16,-4.5e-05
"875",5.16555555555555,0
"876",5.17111111111111,0.034909
"877",5.17666666666667,0.046545
"878",5.18222222222222,0.058182
"879",5.18777777777778,0.069818
"880",5.19333333333333,0.081455
"881",5.19888888888889,0.116364
"882",5.20444444444444,0.128
"883",5.21,0.128
"884",5.21555555555555,0.162909
"885",5.22111111111111,0.162909
"886",5.22666666666667,0.174545
"887",5.23222222222222,0.174545
"888",5.23777777777778,0.174545
"889",5.24333333333333,0.174545
"890",5.24888888888889,0.174545
"891",5.25444444444444,0.174545
"892",5.26,0.174545
"893",5.26555555555555,0.174545
"894",5.27111111111111,0.186182
"895",5.27666666666667,0.197818
"896",5.28222222222222,0.162909
"897",5.28777777777778,0.197818
"898",5.29333333333333,0.162909
"899",5.29888888888889,0.197818
"900",5.30444444444444,0.162909
"901",5.31,0.174545
"902",5.31555555555555,0.174545
"903",5.32111111111111,0.174545
"904",5.32666666666667,0.209455
"905",5.33222222222222,0.174545
"906",5.33777777777778,0.174545
"907",5.34333333333333,0.209455
"908",5.34888888888889,0.209455
"909",5.35444444444444,0.244364
"910",5.36,0.279273
"911",5.36555555555555,0.279273
"912",5.37111111111111,0.314182
"913",5.37666666666667,0.349091
"914",5.38222222222222,0.384
"915",5.38777777777778,0.314182
"916",5.39333333333333,0.244364
"917",5.39888888888889,0.209455
"918",5.40444444444444,0.174545
"919",5.41,0.174545
"920",5.41555555555555,0.139636
"921",5.42111111111111,0.139636
"922",5.42666666666667,0.128
"923",5.43222222222222,0.093091
"924",5.43777777777778,0.093091
"925",5.44333333333333,0.081455
"926",5.44888888888889,0.081455
"927",5.45444444444444,0.081455
"928",5.46,0.069818
"929",5.46555555555555,0.081455
"930",5.47111111111111,0.093091
"931",5.47666666666667,0.093091
"932",5.48222222222222,0.058182
"933",5.48777777777778,0.069818
"934",5.49333333333333,0.081455
"935",5.49888888888889,0.093091
"936",5.50444444444444,0.162909
"937",5.51,0.407273
"938",5.51555555555555,0.849455
"939",5.52111111111111,1.093818
"940",5.52666666666667,0.651636
"941",5.53222222222222,-0.151318
"942",5.53777777777778,-0.965864
"943",5.54333333333333,-0.896045
"944",5.54888888888889,-0.756409
"945",5.55444444444444,-0.512045
"946",5.56,-0.372409
"947",5.56555555555555,-0.232773
"948",5.57111111111111,-0.093136
"949",5.57666666666667,0.139636
"950",5.58222222222222,0.151273
"951",5.58777777777778,0.116364
"952",5.59333333333333,0.151273
"953",5.59888888888889,0.186182
"954",5.60444444444444,0.221091
"955",5.61,0.221091
"956",5.61555555555555,0.232727
"957",5.62111111111111,0.197818
"958",5.62666666666667,0.232727
"959",5.63222222222222,0.244364
"960",5.63777777777778,0.256
"961",5.64333333333333,0.267636
"962",5.64888888888889,0.267636
"963",5.65444444444444,0.267636
"964",5.66,0.302545
"965",5.66555555555555,0.302545
"966",5.67111111111111,0.302545
"967",5.67666666666667,0.314182
"968",5.68222222222222,0.314182
"969",5.68777777777778,0.314182
"970",5.69333333333333,0.325818
"971",5.69888888888889,0.325818
"972",5.70444444444444,0.325818
"973",5.71,0.337455
"974",5.71555555555555,0.372364
"975",5.72111111111111,0.372364
"976",5.72666666666667,0.337455
"977",5.73222222222222,0.372364
"978",5.73777777777778,0.372364
"979",5.74333333333333,0.337455
"980",5.74888888888889,0.337455
"981",5.75444444444444,0.349091
"982",5.76,0.314182
"983",5.76555555555555,0.349091
"984",5.77111111111111,0.314182
"985",5.77666666666667,0.279273
"986",5.78222222222222,0.209455
"987",5.78777777777778,0.174545
"988",5.79333333333333,0.174545
"989",5.79888888888889,0.139636
"990",5.80444444444444,0.069818
"991",5.81,0.034909
"992",5.81555555555555,0.023273
"993",5.82111111111111,0.034909
"994",5.82666666666667,0.034909
"995",5.83222222222222,0
"996",5.83777777777778,0.034909
"997",5.84333333333333,0
"998",5.84888888888889,0.034909
"999",5.85444444444444,0.046545
"1000",5.86,0.058182
"1001",5.86555555555555,0.069818
"1002",5.87111111111111,0.104727
"1003",5.87666666666667,0.093091
"1004",5.88222222222222,0.093091
"1005",5.88777777777778,0.128
"1006",5.89333333333333,0.162909
"1007",5.89888888888889,0.197818
"1008",5.90444444444444,0.209455
"1009",5.91,0.221091
"1010",5.91555555555555,0.256
"1011",5.92111111111111,0.221091
"1012",5.92666666666667,0.256
"1013",5.93222222222222,0.221091
"1014",5.93777777777778,0.232727
"1015",5.94333333333333,0.267636
"1016",5.94888888888889,0.256
"1017",5.95444444444444,0.256
"1018",5.96,0.244364
"1019",5.96555555555555,0.279273
"1020",5.97111111111111,0.244364
"1021",5.97666666666667,0.244364
"1022",5.98222222222222,0.279273
"1023",5.98777777777778,0.244364
"1024",5.99333333333333,0.279273
"1025",5.99888888888889,0.244364
"1026",6.00444444444444,0.244364
"1027",6.01,0.244364
"1028",6.01555555555555,0.256
"1029",6.02111111111111,0.267636
"1030",6.02666666666667,0.302545
"1031",6.03222222222222,0.372364
"1032",6.03777777777778,0.337455
"1033",6.04333333333333,0.407273
"1034",6.04888888888889,0.407273
"1035",6.05444444444444,0.372364
"1036",6.06,0.302545
"1037",6.06555555555555,0.267636
"1038",6.07111111111111,0.232727
"1039",6.07666666666667,0.244364
"1040",6.08222222222222,0.232727
"1041",6.08777777777778,0.232727
"1042",6.09333333333333,0.244364
"1043",6.09888888888889,0.174545
"1044",6.10444444444444,0.162909
"1045",6.11,0.197818
"1046",6.11555555555555,0.162909
"1047",6.12111111111111,0.174545
"1048",6.12666666666667,0.162909
"1049",6.13222222222222,0.197818
"1050",6.13777777777778,0.186182
"1051",6.14333333333333,0.186182
"1052",6.14888888888889,0.186182
"1053",6.15444444444444,0.151273
"1054",6.16,0.186182
"1055",6.16555555555555,0.151273
"1056",6.17111111111111,0.186182
"1057",6.17666666666667,0.430545
"1058",6.18222222222222,0.872727
"1059",6.18777777777778,1.117091
"1060",6.19333333333333,1.047273
"1061",6.19888888888889,0.232727
"1062",6.20444444444444,-0.570227
"1063",6.21,-0.814591
"1064",6.21555555555555,-0.779682
"1065",6.22111111111111,-0.535318
"1066",6.22666666666667,-0.395682
"1067",6.23222222222222,-0.151318
"1068",6.23777777777778,-0.011682
"1069",6.24333333333333,0.116364
"1070",6.24888888888889,0.256
"1071",6.25444444444444,0.290909
"1072",6.26,0.290909
"1073",6.26555555555555,0.302545
"1074",6.27111111111111,0.302545
"1075",6.27666666666667,0.337455
"1076",6.28222222222222,0.325818
"1077",6.28777777777778,0.360727
"1078",6.29333333333333,0.360727
"1079",6.29888888888889,0.360727
"1080",6.30444444444444,0.360727
"1081",6.31,0.349091
"1082",6.31555555555555,0.384
"1083",6.32111111111111,0.384
"1084",6.32666666666667,0.384
"1085",6.33222222222222,0.418909
"1086",6.33777777777778,0.418909
"1087",6.34333333333333,0.384
"1088",6.34888888888889,0.418909
"1089",6.35444444444444,0.453818
"1090",6.36,0.418909
"1091",6.36555555555555,0.453818
"1092",6.37111111111111,0.453818
"1093",6.37666666666667,0.442182
"1094",6.38222222222222,0.453818
"1095",6.38777777777778,0.453818
"1096",6.39333333333333,0.465455
"1097",6.39888888888889,0.465455
"1098",6.40444444444444,0.500364
"1099",6.41,0.465455
"1100",6.41555555555555,0.500364
"1101",6.42111111111111,0.430545
"1102",6.42666666666667,0.418909
"1103",6.43222222222222,0.384
"1104",6.43777777777778,0.418909
"1105",6.44333333333333,0.384
"1106",6.44888888888889,0.349091
"1107",6.45444444444444,0.314182
"1108",6.46,0.302545
"1109",6.46555555555555,0.267636
"1110",6.47111111111111,0.232727
"1111",6.47666666666667,0.162909
"1112",6.48222222222222,0.093091
"1113",6.48777777777778,0.128
"1114",6.49333333333333,0.162909
"1115",6.49888888888889,0.162909
"1116",6.50444444444444,0.128
"1117",6.51,0.139636
"1118",6.51555555555555,0.151273
"1119",6.52111111111111,0.186182
"1120",6.52666666666667,0.186182
"1121",6.53222222222222,0.174545
"1122",6.53777777777778,0.174545
"1123",6.54333333333333,0.209455
"1124",6.54888888888889,0.221091
"1125",6.55444444444444,0.232727
"1126",6.56,0.267636
"1127",6.56555555555555,0.279273
"1128",6.57111111111111,0.244364
"1129",6.57666666666667,0.256
"1130",6.58222222222222,0.290909
"1131",6.58777777777778,0.279273
"1132",6.59333333333333,0.290909
"1133",6.59888888888889,0.325818
"1134",6.60444444444444,0.314182
"1135",6.61,0.279273
"1136",6.61555555555555,0.290909
"1137",6.62111111111111,0.290909
"1138",6.62666666666667,0.302545
"1139",6.63222222222222,0.302545
"1140",6.63777777777778,0.314182
"1141",6.64333333333333,0.349091
"1142",6.64888888888889,0.279273
"1143",6.65444444444444,0.279273
"1144",6.66,0.279273
"1145",6.66555555555555,0.279273
"1146",6.67111111111111,0.290909
"1147",6.67666666666667,0.290909
"1148",6.68222222222222,0.279273
"1149",6.68777777777778,0.279273
"1150",6.69333333333333,0.279273
"1151",6.69888888888889,0.267636
"1152",6.70444444444444,0.256
"1153",6.71,0.290909
"1154",6.71555555555555,0.290909
"1155",6.72111111111111,0.256
"1156",6.72666666666667,0.221091
"1157",6.73222222222222,0.256
"1158",6.73777777777778,0.267636
"1159",6.74333333333333,0.279273
"1160",6.74888888888889,0.244364
"1161",6.75444444444444,0.279273
"1162",6.76,0.267636
"1163",6.76555555555555,0.279273
"1164",6.77111111111111,0.279273
"1165",6.77666666666667,0.314182
"1166",6.78222222222222,0.349091
"1167",6.78777777777778,0.360727
"1168",6.79333333333333,0.395636
"1169",6.79888888888889,0.407273
"1170",6.80444444444444,0.372364
"1171",6.81,0.302545
"1172",6.81555555555555,0.267636
"1173",6.82111111111111,0.232727
"1174",6.82666666666667,0.232727
"1175",6.83222222222222,0.232727
"1176",6.83777777777778,0.232727
"1177",6.84333333333333,0.197818
"1178",6.84888888888889,0.162909
"1179",6.85444444444444,0.174545
"1180",6.86,0.139636
"1181",6.86555555555555,0.139636
"1182",6.87111111111111,0.128
"1183",6.87666666666667,0.128
"1184",6.88222222222222,0.116364
"1185",6.88777777777778,0.116364
"1186",6.89333333333333,0.151273
"1187",6.89888888888889,0.139636
"1188",6.90444444444444,0.139636
"1189",6.91,0.128
"1190",6.91555555555555,0.139636
"1191",6.92111111111111,0.384
"1192",6.92666666666667,0.826182
"1193",6.93222222222222,1.070545
"1194",6.93777777777778,1.105455
"1195",6.94333333333333,0.290909
"1196",6.94888888888889,-0.512045
"1197",6.95444444444444,-0.954227
"1198",6.96,-0.954227
"1199",6.96555555555555,-0.709864
"1200",6.97111111111111,-0.4655
"1201",6.97666666666667,-0.221136
"1202",6.98222222222222,-0.0815
"1203",6.98777777777778,0.046545
"1204",6.99333333333333,0.116364
"1205",6.99888888888889,0.151273
"1206",7.00444444444444,0.162909
"1207",7.01,0.174545
"1208",7.01555555555555,0.186182
"1209",7.02111111111111,0.174545
"1210",7.02666666666667,0.186182
"1211",7.03222222222222,0.197818
"1212",7.03777777777778,0.209455
"1213",7.04333333333333,0.221091
"1214",7.04888888888889,0.186182
"1215",7.05444444444444,0.186182
"1216",7.06,0.221091
"1217",7.06555555555555,0.221091
"1218",7.07111111111111,0.232727
"1219",7.07666666666667,0.232727
"1220",7.08222222222222,0.232727
"1221",7.08777777777778,0.244364
"1222",7.09333333333333,0.244364
"1223",7.09888888888889,0.279273
"1224",7.10444444444444,0.267636
"1225",7.11,0.267636
"1226",7.11555555555555,0.267636
"1227",7.12111111111111,0.232727
"1228",7.12666666666667,0.244364
"1229",7.13222222222222,0.256
"1230",7.13777777777778,0.244364
"1231",7.14333333333333,0.244364
"1232",7.14888888888889,0.244364
"1233",7.15444444444444,0.244364
"1234",7.16,0.279273
"1235",7.16555555555555,0.244364
"1236",7.17111111111111,0.209455
"1237",7.17666666666667,0.197818
"1238",7.18222222222222,0.197818
"1239",7.18777777777778,0.162909
"1240",7.19333333333333,0.128
"1241",7.19888888888889,0.093091
"1242",7.20444444444444,0.058182
"1243",7.21,0.023273
"1244",7.21555555555555,-4.5e-05
"1245",7.22111111111111,-0.034955
"1246",7.22666666666667,-0.069864
"1247",7.23222222222222,-0.104773
"1248",7.23777777777778,-0.104773
"1249",7.24333333333333,-0.139682
"1250",7.24888888888889,-0.128045
"1251",7.25444444444444,-0.116409
"1252",7.26,-0.0815
"1253",7.26555555555555,-0.151318
"1254",7.27111111111111,-0.0815
"1255",7.27666666666667,-0.069864
"1256",7.28222222222222,-0.034955
"1257",7.28777777777778,-0.034955
"1258",7.29333333333333,-0.034955
"1259",7.29888888888889,-0.046591
"1260",7.30444444444444,-0.011682
"1261",7.31,0.011636
"1262",7.31555555555555,-0.011682
"1263",7.32111111111111,0.011636
"1264",7.32666666666667,0.023273
"1265",7.33222222222222,0.058182
"1266",7.33777777777778,0.046545
"1267",7.34333333333333,0.046545
"1268",7.34888888888889,0.046545
"1269",7.35444444444444,0.058182
"1270",7.36,0.058182
"1271",7.36555555555555,0.058182
"1272",7.37111111111111,0.058182
"1273",7.37666666666667,0.058182
"1274",7.38222222222222,0.023273
"1275",7.38777777777778,0.058182
"1276",7.39333333333333,0.058182
"1277",7.39888888888889,0.023273
"1278",7.40444444444444,0.023273
"1279",7.41,0.011636
"1280",7.41555555555555,0.011636
"1281",7.42111111111111,0.023273
"1282",7.42666666666667,0.023273
"1283",7.43222222222222,0.023273
"1284",7.43777777777778,0.023273
"1285",7.44333333333333,0.023273
"1286",7.44888888888889,0.034909
"1287",7.45444444444444,0
"1288",7.46,-4.5e-05
"1289",7.46555555555555,-4.5e-05
"1290",7.47111111111111,-4.5e-05
"1291",7.47666666666667,-0.011682
"1292",7.48222222222222,-0.011682
"1293",7.48777777777778,-0.011682
"1294",7.49333333333333,-0.023318
"1295",7.49888888888889,-0.023318
"1296",7.50444444444444,-0.034955
"1297",7.51,-4.5e-05
"1298",7.51555555555555,-0.034955
"1299",7.52111111111111,-4.5e-05
"1300",7.52666666666667,0.058182
"1301",7.53222222222222,0.058182
"1302",7.53777777777778,0.093091
"1303",7.54333333333333,0.128
"1304",7.54888888888889,0.128
"1305",7.55444444444444,0.116364
"1306",7.56,0.128
"1307",7.56555555555555,0.116364
"1308",7.57111111111111,0.046545
"1309",7.57666666666667,0.011636
"1310",7.58222222222222,-0.011682
"1311",7.58777777777778,-0.011682
"1312",7.59333333333333,-0.046591
"1313",7.59888888888889,-0.058227
"1314",7.60444444444444,-0.069864
"1315",7.61,-0.104773
"1316",7.61555555555555,-0.069864
"1317",7.62111111111111,-0.104773
"1318",7.62666666666667,-0.093136
"1319",7.63222222222222,-0.058227
"1320",7.63777777777778,-0.093136
"1321",7.64333333333333,-0.093136
"1322",7.64888888888889,-0.093136
"1323",7.65444444444444,-0.104773
"1324",7.66,-0.093136
"1325",7.66555555555555,-0.058227
"1326",7.67111111111111,0
"1327",7.67666666666666,0.244364
"1328",7.68222222222222,0.686545
"1329",7.68777777777778,0.930909
"1330",7.69333333333333,0.488727
"1331",7.69888888888889,-0.314227
"1332",7.70444444444444,-1.128773
"1333",7.71,-1.198591
"1334",7.71555555555555,-1.058955
"1335",7.72111111111111,-0.814591
"1336",7.72666666666667,-0.674955
"1337",7.73222222222222,-0.430591
"1338",7.73777777777778,-0.186227
"1339",7.74333333333333,-0.046591
"1340",7.74888888888889,-0.058227
"1341",7.75444444444444,-0.058227
"1342",7.76,-0.058227
"1343",7.76555555555555,-0.023318
"1344",7.77111111111111,-0.011682
"1345",7.77666666666667,-4.5e-05
"1346",7.78222222222222,-0.011682
"1347",7.78777777777778,-0.023318
"1348",7.79333333333333,0
"1349",7.79888888888889,-0.023318
"1350",7.80444444444444,0
"1351",7.81,0.011636
"1352",7.81555555555555,0.023273
"1353",7.82111111111111,0.023273
"1354",7.82666666666667,0.023273
"1355",7.83222222222222,0.011636
"1356",7.83777777777778,0.011636
"1357",7.84333333333333,0.046545
"1358",7.84888888888889,0.011636
"1359",7.85444444444444,0.046545
"1360",7.86,0.046545
"1361",7.86555555555555,0.081455
"1362",7.87111111111111,0.046545
"1363",7.87666666666667,0.058182
"1364",7.88222222222222,0.093091
"1365",7.88777777777778,0.058182
"1366",7.89333333333333,0.058182
"1367",7.89888888888889,0.058182
"1368",7.90444444444444,0.046545
"1369",7.91,0.034909
"1370",7.91555555555555,0.023273
"1371",7.92111111111111,-4.5e-05
"1372",7.92666666666666,-0.011682
"1373",7.93222222222222,-0.023318
"1374",7.93777777777778,-0.034955
"1375",7.94333333333333,-0.104773
"1376",7.94888888888889,-0.139682
"1377",7.95444444444444,-0.174591
"1378",7.96,-0.2095
"1379",7.96555555555555,-0.244409
"1380",7.97111111111111,-0.279318
"1381",7.97666666666667,-0.314227
"1382",7.98222222222222,-0.349136
"1383",7.98777777777778,-0.360773
"1384",7.99333333333333,-0.360773
"1385",7.99888888888889,-0.360773
"1386",8.00444444444444,-0.360773
"1387",8.01,-0.360773
"1388",8.01555555555555,-0.349136
"1389",8.02111111111111,-0.3375
"1390",8.02666666666667,-0.325864
"1391",8.03222222222222,-0.290955
"1392",8.03777777777778,-0.256045
"1393",8.04333333333333,-0.256045
"1394",8.04888888888889,-0.244409
"1395",8.05444444444444,-0.244409
"1396",8.06,-0.2095
"1397",8.06555555555556,-0.2095
"1398",8.07111111111111,-0.174591
"1399",8.07666666666667,-0.174591
"1400",8.08222222222222,-0.174591
"1401",8.08777777777778,-0.162955
"1402",8.09333333333333,-0.162955
"1403",8.09888888888889,-0.174591
"1404",8.10444444444444,-0.162955
"1405",8.11,-0.128045
"1406",8.11555555555555,-0.139682
"1407",8.12111111111111,-0.139682
"1408",8.12666666666667,-0.139682
"1409",8.13222222222222,-0.139682
"1410",8.13777777777778,-0.151318
"1411",8.14333333333333,-0.151318
"1412",8.14888888888889,-0.186227
"1413",8.15444444444444,-0.186227
"1414",8.16,-0.174591
"1415",8.16555555555555,-0.174591
"1416",8.17111111111111,-0.186227
"1417",8.17666666666667,-0.221136
"1418",8.18222222222222,-0.186227
"1419",8.18777777777778,-0.221136
"1420",8.19333333333333,-0.2095
"1421",8.19888888888889,-0.197864
"1422",8.20444444444444,-0.186227
"1423",8.21,-0.197864
"1424",8.21555555555556,-0.2095
"1425",8.22111111111111,-0.2095
"1426",8.22666666666667,-0.221136
"1427",8.23222222222222,-0.221136
"1428",8.23777777777778,-0.221136
"1429",8.24333333333333,-0.2095
"1430",8.24888888888889,-0.221136
"1431",8.25444444444444,-0.186227
"1432",8.26,-0.174591
"1433",8.26555555555555,-0.139682
"1434",8.27111111111111,-0.104773
"1435",8.27666666666667,-0.093136
"1436",8.28222222222222,-0.093136
"1437",8.28777777777778,-0.104773
"1438",8.29333333333333,-0.139682
"1439",8.29888888888889,-0.279318
"1440",8.30444444444444,-0.244409
"1441",8.31,-0.244409
"1442",8.31555555555556,-0.256045
"1443",8.32111111111111,-0.290955
"1444",8.32666666666667,-0.290955
"1445",8.33222222222222,-0.290955
"1446",8.33777777777778,-0.325864
"1447",8.34333333333333,-0.3375
"1448",8.34888888888889,-0.325864
"1449",8.35444444444444,-0.325864
"1450",8.36,-0.3375
"1451",8.36555555555556,-0.349136
"1452",8.37111111111111,-0.360773
"1453",8.37666666666667,-0.325864
"1454",8.38222222222222,-0.314227
"1455",8.38777777777778,-0.279318
"1456",8.39333333333333,-0.314227
"1457",8.39888888888889,-0.244409
"1458",8.40444444444444,0.186182
"1459",8.41,0.628364
"1460",8.41555555555555,0.616727
"1461",8.42111111111111,-0.186227
"1462",8.42666666666667,-1.000773
"1463",8.43222222222222,-1.442955
"1464",8.43777777777778,-1.373136
"1465",8.44333333333333,-1.2335
"1466",8.44888888888889,-0.989136
"1467",8.45444444444444,-0.8495
"1468",8.46,-0.605136
"1469",8.46555555555556,-0.4655
"1470",8.47111111111111,-0.325864
"1471",8.47666666666667,-0.290955
"1472",8.48222222222222,-0.279318
"1473",8.48777777777778,-0.267682
"1474",8.49333333333333,-0.232773
"1475",8.49888888888889,-0.244409
"1476",8.50444444444444,-0.232773
"1477",8.51,-0.221136
"1478",8.51555555555555,-0.221136
"1479",8.52111111111111,-0.2095
"1480",8.52666666666667,-0.221136
"1481",8.53222222222222,-0.2095
"1482",8.53777777777778,-0.197864
"1483",8.54333333333333,-0.186227
"1484",8.54888888888889,-0.174591
"1485",8.55444444444444,-0.174591
"1486",8.56,-0.174591
"1487",8.56555555555556,-0.139682
"1488",8.57111111111111,-0.151318
"1489",8.57666666666667,-0.162955
"1490",8.58222222222222,-0.197864
"1491",8.58777777777778,-0.162955
"1492",8.59333333333333,-0.151318
"1493",8.59888888888889,-0.139682
"1494",8.60444444444444,-0.139682
"1495",8.61,-0.139682
"1496",8.61555555555556,-0.128045
"1497",8.62111111111111,-0.128045
"1498",8.62666666666667,-0.128045
"1499",8.63222222222222,-0.128045
"1500",8.63777777777778,-0.139682
"1501",8.64333333333333,-0.174591
"1502",8.64888888888889,-0.186227
"1503",8.65444444444444,-0.221136
"1504",8.66,-0.232773
"1505",8.66555555555555,-0.244409
"1506",8.67111111111111,-0.279318
"1507",8.67666666666667,-0.314227
"1508",8.68222222222222,-0.349136
"1509",8.68777777777778,-0.384045
"1510",8.69333333333333,-0.418955
"1511",8.69888888888889,-0.488773
"1512",8.70444444444444,-0.500409
"1513",8.71,-0.535318
"1514",8.71555555555556,-0.535318
"1515",8.72111111111111,-0.546955
"1516",8.72666666666667,-0.558591
"1517",8.73222222222222,-0.523682
"1518",8.73777777777778,-0.523682
"1519",8.74333333333333,-0.512045
"1520",8.74888888888889,-0.477136
"1521",8.75444444444444,-0.512045
"1522",8.76,-0.500409
"1523",8.76555555555555,-0.4655
"1524",8.77111111111111,-0.430591
"1525",8.77666666666667,-0.395682
"1526",8.78222222222222,-0.395682
"1527",8.78777777777778,-0.360773
"1528",8.79333333333333,-0.360773
"1529",8.79888888888889,-0.349136
"1530",8.80444444444444,-0.3375
"1531",8.81,-0.302591
"1532",8.81555555555556,-0.3375
"1533",8.82111111111111,-0.3375
"1534",8.82666666666667,-0.325864
"1535",8.83222222222222,-0.325864
"1536",8.83777777777778,-0.314227
"1537",8.84333333333333,-0.314227
"1538",8.84888888888889,-0.349136
"1539",8.85444444444444,-0.314227
"1540",8.86,-0.325864
"1541",8.86555555555556,-0.314227
"1542",8.87111111111111,-0.314227
"1543",8.87666666666667,-0.325864
"1544",8.88222222222222,-0.325864
"1545",8.88777777777778,-0.325864
"1546",8.89333333333333,-0.360773
"1547",8.89888888888889,-0.349136
"1548",8.90444444444444,-0.314227
"1549",8.91,-0.349136
"1550",8.91555555555555,-0.360773
"1551",8.92111111111111,-0.360773
"1552",8.92666666666667,-0.325864
"1553",8.93222222222222,-0.360773
"1554",8.93777777777778,-0.372409
"1555",8.94333333333333,-0.372409
"1556",8.94888888888889,-0.372409
"1557",8.95444444444444,-0.360773
"1558",8.96,-0.360773
"1559",8.96555555555556,-0.360773
"1560",8.97111111111111,-0.349136
"1561",8.97666666666667,-0.360773
"1562",8.98222222222222,-0.349136
"1563",8.98777777777778,-0.314227
"1564",8.99333333333333,-0.314227
"1565",8.99888888888889,-0.279318
"1566",9.00444444444444,-0.244409
"1567",9.01,-0.244409
"1568",9.01555555555555,-0.232773
"1569",9.02111111111111,-0.221136
"1570",9.02666666666667,-0.256045
"1571",9.03222222222222,-0.325864
"1572",9.03777777777778,-0.395682
"1573",9.04333333333333,-0.395682
"1574",9.04888888888889,-0.384045
"1575",9.05444444444444,-0.384045
"1576",9.06,-0.418955
"1577",9.06555555555556,-0.430591
"1578",9.07111111111111,-0.500409
"1579",9.07666666666667,-0.4655
"1580",9.08222222222222,-0.430591
"1581",9.08777777777778,-0.4655
"1582",9.09333333333333,-0.4655
"1583",9.09888888888889,-0.4655
"1584",9.10444444444444,-0.453864
"1585",9.11,-0.488773
"1586",9.11555555555556,-0.453864
"1587",9.12111111111111,-0.453864
"1588",9.12666666666667,-0.442227
"1589",9.13222222222222,-0.430591
"1590",9.13777777777778,-0.186227
"1591",9.14333333333333,0.244364
"1592",9.14888888888889,0.488727
"1593",9.15444444444444,0.046545
"1594",9.16,-0.756409
"1595",9.16555555555555,1.407955
"1596",9.17111111111111,1.396318
"1597",9.17666666666667,-1.442955
"1598",9.18222222222222,-1.198591
"1599",9.18777777777778,-1.058955
"1600",9.19333333333333,-0.814591
"1601",9.19888888888889,-0.674955
"1602",9.20444444444444,-0.430591
"1603",9.21,-0.430591
"1604",9.21555555555556,-0.418955
"1605",9.22111111111111,-0.407318
"1606",9.22666666666667,-0.395682
"1607",9.23222222222222,-0.395682
"1608",9.23777777777778,-0.384045
"1609",9.24333333333333,-0.349136
"1610",9.24888888888889,-0.360773
"1611",9.25444444444444,-0.372409
"1612",9.26,-0.3375
"1613",9.26555555555555,-0.349136
"1614",9.27111111111111,-0.3375
"1615",9.27666666666667,-0.349136
"1616",9.28222222222222,-0.3375
"1617",9.28777777777778,-0.349136
"1618",9.29333333333333,-0.349136
"1619",9.29888888888889,-0.314227
"1620",9.30444444444444,-0.314227
"1621",9.31,-0.314227
"1622",9.31555555555556,-0.302591
"1623",9.32111111111111,-0.290955
"1624",9.32666666666667,-0.325864
"1625",9.33222222222222,-0.290955
"1626",9.33777777777778,-0.302591
"1627",9.34333333333333,-0.302591
"1628",9.34888888888889,-0.302591
"1629",9.35444444444444,-0.314227
"1630",9.36,-0.314227
"1631",9.36555555555556,-0.314227
"1632",9.37111111111111,-0.325864
"1633",9.37666666666667,-0.360773
"1634",9.38222222222222,-0.325864
"1635",9.38777777777778,-0.360773
"1636",9.39333333333333,-0.360773
"1637",9.39888888888889,-0.372409
"1638",9.40444444444444,-0.407318
"1639",9.41,-0.442227
"1640",9.41555555555555,-0.512045
"1641",9.42111111111111,-0.546955
"1642",9.42666666666667,-0.558591
"1643",9.43222222222222,-0.5935
"1644",9.43777777777778,-0.628409
"1645",9.44333333333333,-0.663318
"1646",9.44888888888889,-0.674955
"1647",9.45444444444444,-0.686591
"1648",9.46,-0.686591
"1649",9.46555555555556,-0.698227
"1650",9.47111111111111,-0.663318
"1651",9.47666666666667,-0.628409
"1652",9.48222222222222,-0.616773
"1653",9.48777777777778,-0.581864
"1654",9.49333333333333,-0.581864
"1655",9.49888888888889,-0.570227
"1656",9.50444444444444,-0.570227
"1657",9.51,-0.535318
"1658",9.51555555555555,-0.535318
"1659",9.52111111111111,-0.500409
"1660",9.52666666666667,-0.512045
"1661",9.53222222222222,-0.523682
"1662",9.53777777777778,-0.512045
"1663",9.54333333333333,-0.512045
"1664",9.54888888888889,-0.500409
"1665",9.55444444444444,-0.488773
"1666",9.56,-0.453864
"1667",9.56555555555556,-0.442227
"1668",9.57111111111111,-0.477136
"1669",9.57666666666667,-0.4655
"1670",9.58222222222222,-0.453864
"1671",9.58777777777778,-0.453864
"1672",9.59333333333333,-0.488773
"1673",9.59888888888889,-0.488773
"1674",9.60444444444444,-0.453864
"1675",9.61,-0.4655
"1676",9.61555555555555,-0.477136
"1677",9.62111111111111,-0.477136
"1678",9.62666666666667,-0.442227
"1679",9.63222222222222,-0.453864
"1680",9.63777777777778,-0.488773
"1681",9.64333333333333,-0.488773
"1682",9.64888888888889,-0.523682
"1683",9.65444444444444,-0.453864
"1684",9.66,-0.442227
"1685",9.66555555555555,-0.453864
"1686",9.67111111111111,-0.488773
"1687",9.67666666666667,-0.477136
"1688",9.68222222222222,-0.477136
"1689",9.68777777777778,-0.488773
"1690",9.69333333333333,-0.500409
"1691",9.69888888888889,-0.4655
"1692",9.70444444444444,-0.430591
"1693",9.71,-0.4655
"1694",9.71555555555556,-0.430591
"1695",9.72111111111111,-0.395682
"1696",9.72666666666667,-0.395682
"1697",9.73222222222222,-0.360773
"1698",9.73777777777778,-0.325864
"1699",9.74333333333333,-0.314227
"1700",9.74888888888889,-0.349136
"1701",9.75444444444444,-0.314227
"1702",9.76,-0.325864
"1703",9.76555555555555,-0.395682
"1704",9.77111111111111,-0.430591
"1705",9.77666666666667,-0.430591
"1706",9.78222222222222,-0.430591
"1707",9.78777777777778,-0.4655
"1708",9.79333333333333,-0.4655
"1709",9.79888888888889,-0.500409
"1710",9.80444444444444,-0.512045
"1711",9.81,-0.477136
"1712",9.81555555555556,-0.512045
"1713",9.82111111111111,-0.512045
"1714",9.82666666666667,-0.523682
"1715",9.83222222222222,-0.488773
"1716",9.83777777777778,-0.488773
"1717",9.84333333333333,-0.488773
"1718",9.84888888888889,-0.453864
"1719",9.85444444444444,-0.453864
"1720",9.86,-0.488773
"1721",9.86555555555555,-0.418955
"1722",9.87111111111111,0.011636
"1723",9.87666666666667,0.453818
"1724",9.88222222222222,0.593455
"1725",9.88777777777778,0.151273
"1726",9.89333333333333,-0.651682
"1727",9.89888888888889,-1.466227
"1728",9.90444444444444,1.442864
"1729",9.91,-1.466227
"1730",9.91555555555555,-1.221864
"1731",9.92111111111111,-1.082227
"1732",9.92666666666667,-0.837864
"1733",9.93222222222222,-0.5935
"1734",9.93777777777778,-0.523682
"1735",9.94333333333333,-0.453864
"1736",9.94888888888889,-0.384045
"1737",9.95444444444444,-0.349136
"1738",9.96,-0.384045
"1739",9.96555555555556,-0.372409
"1740",9.97111111111111,-0.384045
"1741",9.97666666666667,-0.314227
"1742",9.98222222222222,-0.314227
"1743",9.98777777777778,-0.349136
"1744",9.99333333333333,-0.314227
"1745",9.99888888888889,-0.314227
"1746",10.0044444444444,-0.302591
"1747",10.01,-0.302591
"1748",10.0155555555556,-0.302591
"1749",10.0211111111111,-0.3375
"1750",10.0266666666667,-0.302591
"1751",10.0322222222222,-0.290955
"1752",10.0377777777778,-0.256045
"1753",10.0433333333333,-0.221136
"1754",10.0488888888889,-0.256045
"1755",10.0544444444444,-0.244409
"1756",10.06,-0.279318
"1757",10.0655555555556,-0.244409
"1758",10.0711111111111,-0.2095
"1759",10.0766666666667,-0.197864
"1760",10.0822222222222,-0.2095
"1761",10.0877777777778,-0.2095
"1762",10.0933333333333,-0.2095
"1763",10.0988888888889,-0.221136
"1764",10.1044444444444,-0.221136
"1765",10.11,-0.256045
"1766",10.1155555555556,-0.267682
"1767",10.1211111111111,-0.267682
"1768",10.1266666666667,-0.3375
"1769",10.1322222222222,-0.372409
"1770",10.1377777777778,-0.384045
"1771",10.1433333333333,-0.418955
"1772",10.1488888888889,-0.430591
"1773",10.1544444444444,-0.4655
"1774",10.16,-0.4655
"1775",10.1655555555556,-0.535318
"1776",10.1711111111111,-0.546955
"1777",10.1766666666667,-0.581864
"1778",10.1822222222222,-0.616773
"1779",10.1877777777778,-0.605136
"1780",10.1933333333333,-0.640045
"1781",10.1988888888889,-0.605136
"1782",10.2044444444444,-0.570227
"1783",10.21,-0.535318
"1784",10.2155555555556,-0.546955
"1785",10.2211111111111,-0.535318
"1786",10.2266666666667,-0.570227
"1787",10.2322222222222,-0.535318
"1788",10.2377777777778,-0.500409
"1789",10.2433333333333,-0.4655
"1790",10.2488888888889,-0.430591
"1791",10.2544444444444,-0.430591
"1792",10.26,-0.430591
"1793",10.2655555555556,-0.430591
"1794",10.2711111111111,-0.395682
"1795",10.2766666666667,-0.407318
"1796",10.2822222222222,-0.395682
"1797",10.2877777777778,-0.360773
"1798",10.2933333333333,-0.360773
"1799",10.2988888888889,-0.372409
"1800",10.3044444444444,-0.384045
"1801",10.31,-0.418955
"1802",10.3155555555556,-0.384045
"1803",10.3211111111111,-0.349136
"1804",10.3266666666667,-0.349136
"1805",10.3322222222222,-0.3375
"1806",10.3377777777778,-0.349136
"1807",10.3433333333333,-0.384045
"1808",10.3488888888889,-0.418955
"1809",10.3544444444444,-0.349136
"1810",10.36,-0.3375
"1811",10.3655555555556,-0.325864
"1812",10.3711111111111,-0.360773
"1813",10.3766666666667,-0.395682
"1814",10.3822222222222,-0.360773
"1815",10.3877777777778,-0.372409
"1816",10.3933333333333,-0.372409
"1817",10.3988888888889,-0.372409
"1818",10.4044444444444,-0.384045
"1819",10.41,-0.384045
"1820",10.4155555555556,-0.395682
"1821",10.4211111111111,-0.360773
"1822",10.4266666666667,-0.372409
"1823",10.4322222222222,-0.372409
"1824",10.4377777777778,-0.384045
"1825",10.4433333333333,-0.372409
"1826",10.4488888888889,-0.360773
"1827",10.4544444444444,-0.372409
"1828",10.46,-0.360773
"1829",10.4655555555556,-0.325864
"1830",10.4711111111111,-0.290955
"1831",10.4766666666667,-0.256045
"1832",10.4822222222222,-0.256045
"1833",10.4877777777778,-0.290955
"1834",10.4933333333333,-0.256045
"1835",10.4988888888889,-0.244409
"1836",10.5044444444444,-0.314227
"1837",10.51,-0.349136
"1838",10.5155555555556,-0.360773
"1839",10.5211111111111,-0.372409
"1840",10.5266666666667,-0.407318
"1841",10.5322222222222,-0.395682
"1842",10.5377777777778,-0.430591
"1843",10.5433333333333,-0.442227
"1844",10.5488888888889,-0.453864
"1845",10.5544444444444,-0.488773
"1846",10.56,-0.418955
"1847",10.5655555555556,-0.407318
"1848",10.5711111111111,-0.418955
"1849",10.5766666666667,-0.430591
"1850",10.5822222222222,-0.418955
"1851",10.5877777777778,-0.418955
"1852",10.5933333333333,-0.453864
"1853",10.5988888888889,-0.418955
"1854",10.6044444444444,-0.418955
"1855",10.61,-0.174591
"1856",10.6155555555556,0.256
"1857",10.6211111111111,0.500364
"1858",10.6266666666667,0.256
"1859",10.6322222222222,-0.546955
"1860",10.6377777777778,-1.3615
"1861",10.6433333333333,1.373045
"1862",10.6488888888889,-1.466227
"1863",10.6544444444444,-1.221864
"1864",10.66,-0.9775
"1865",10.6655555555556,-0.733136
"1866",10.6711111111111,-0.488773
"1867",10.6766666666667,-0.349136
"1868",10.6822222222222,-0.349136
"1869",10.6877777777778,-0.314227
"1870",10.6933333333333,-0.302591
"1871",10.6988888888889,-0.302591
"1872",10.7044444444444,-0.290955
"1873",10.71,-0.325864
"1874",10.7155555555556,-0.290955
"1875",10.7211111111111,-0.325864
"1876",10.7266666666667,-0.256045
"1877",10.7322222222222,-0.244409
"1878",10.7377777777778,-0.256045
"1879",10.7433333333333,-0.267682
"1880",10.7488888888889,-0.302591
"1881",10.7544444444444,-0.302591
"1882",10.76,-0.290955
"1883",10.7655555555556,-0.256045
"1884",10.7711111111111,-0.221136
"1885",10.7766666666667,-0.151318
"1886",10.7822222222222,-0.186227
"1887",10.7877777777778,-0.186227
"1888",10.7933333333333,-0.174591
"1889",10.7988888888889,-0.174591
"1890",10.8044444444444,-0.162955
"1891",10.81,-0.174591
"1892",10.8155555555556,-0.186227
"1893",10.8211111111111,-0.186227
"1894",10.8266666666667,-0.174591
"1895",10.8322222222222,-0.186227
"1896",10.8377777777778,-0.174591
"1897",10.8433333333333,-0.2095
"1898",10.8488888888889,-0.2095
"1899",10.8544444444444,-0.244409
"1900",10.86,-0.256045
"1901",10.8655555555556,-0.267682
"1902",10.8711111111111,-0.267682
"1903",10.8766666666667,-0.302591
"1904",10.8822222222222,-0.3375
"1905",10.8877777777778,-0.372409
"1906",10.8933333333333,-0.442227
"1907",10.8988888888889,-0.512045
"1908",10.9044444444444,-0.523682
"1909",10.91,-0.523682
"1910",10.9155555555556,-0.558591
"1911",10.9211111111111,-0.5935
"1912",10.9266666666667,-0.5935
"1913",10.9322222222222,-0.605136
"1914",10.9377777777778,-0.605136
"1915",10.9433333333333,-0.570227
"1916",10.9488888888889,-0.535318
"1917",10.9544444444444,-0.500409
"1918",10.96,-0.500409
"1919",10.9655555555556,-0.500409
"1920",10.9711111111111,-0.4655
"1921",10.9766666666667,-0.430591
"1922",10.9822222222222,-0.430591
"1923",10.9877777777778,-0.395682
"1924",10.9933333333333,-0.360773
"1925",10.9988888888889,-0.360773
"1926",11.0044444444444,-0.325864
"1927",11.01,-0.360773
"1928",11.0155555555556,-0.360773
"1929",11.0211111111111,-0.325864
"1930",11.0266666666667,-0.325864
"1931",11.0322222222222,-0.314227
"1932",11.0377777777778,-0.302591
"1933",11.0433333333333,-0.302591
"1934",11.0488888888889,-0.302591
"1935",11.0544444444444,-0.372409
"1936",11.06,-0.3375
"1937",11.0655555555556,-0.302591
"1938",11.0711111111111,-0.302591
"1939",11.0766666666667,-0.372409
"1940",11.0822222222222,-0.302591
"1941",11.0877777777778,-0.267682
"1942",11.0933333333333,-0.256045
"1943",11.0988888888889,-0.290955
"1944",11.1044444444444,-0.302591
"1945",11.11,-0.314227
"1946",11.1155555555556,-0.314227
"1947",11.1211111111111,-0.302591
"1948",11.1266666666667,-0.3375
"1949",11.1322222222222,-0.325864
"1950",11.1377777777778,-0.325864
"1951",11.1433333333333,-0.290955
"1952",11.1488888888889,-0.279318
"1953",11.1544444444444,-0.290955
"1954",11.16,-0.302591
"1955",11.1655555555556,-0.290955
"1956",11.1711111111111,-0.290955
"1957",11.1766666666667,-0.302591
"1958",11.1822222222222,-0.314227
"1959",11.1877777777778,-0.279318
"1960",11.1933333333333,-0.267682
"1961",11.1988888888889,-0.267682
"1962",11.2044444444444,-0.267682
"1963",11.21,-0.232773
"1964",11.2155555555556,-0.197864
"1965",11.2211111111111,-0.2095
"1966",11.2266666666667,-0.174591
"1967",11.2322222222222,-0.139682
"1968",11.2377777777778,-0.174591
"1969",11.2433333333333,-0.244409
"1970",11.2488888888889,-0.314227
"1971",11.2544444444444,-0.302591
"1972",11.26,-0.314227
"1973",11.2655555555556,-0.302591
"1974",11.2711111111111,-0.302591
"1975",11.2766666666667,-0.3375
"1976",11.2822222222222,-0.372409
"1977",11.2877777777778,-0.384045
"1978",11.2933333333333,-0.384045
"1979",11.2988888888889,-0.372409
"1980",11.3044444444444,-0.372409
"1981",11.31,-0.360773
"1982",11.3155555555556,-0.372409
"1983",11.3211111111111,-0.372409
"1984",11.3266666666667,-0.360773
"1985",11.3322222222222,-0.395682
"1986",11.3377777777778,-0.384045
"1987",11.3433333333333,-0.395682
"1988",11.3488888888889,-0.151318
"1989",11.3544444444444,0.279273
"1990",11.36,0.721455
"1991",11.3655555555556,-0.0815
"1992",11.3711111111111,-0.896045
"1993",11.3766666666667,-1.338227
"1994",11.3822222222222,-1.477864
"1995",11.3877777777778,-1.338227
"1996",11.3933333333333,-1.093864
"1997",11.3988888888889,-0.8495
"1998",11.4044444444444,-0.709864
"1999",11.41,-0.4655
"2000",11.4155555555556,-0.325864
"2001",11.4211111111111,-0.314227
"2002",11.4266666666667,-0.279318
"2003",11.4322222222222,-0.290955
"2004",11.4377777777778,-0.256045
"2005",11.4433333333333,-0.244409
"2006",11.4488888888889,-0.232773
"2007",11.4544444444444,-0.221136
"2008",11.46,-0.256045
"2009",11.4655555555556,-0.244409
"2010",11.4711111111111,-0.232773
"2011",11.4766666666667,-0.197864
"2012",11.4822222222222,-0.162955
"2013",11.4877777777778,-0.174591
"2014",11.4933333333333,-0.174591
"2015",11.4988888888889,-0.174591
"2016",11.5044444444444,-0.174591
"2017",11.51,-0.186227
"2018",11.5155555555556,-0.151318
"2019",11.5211111111111,-0.186227
"2020",11.5266666666667,-0.151318
"2021",11.5322222222222,-0.116409
"2022",11.5377777777778,-0.116409
"2023",11.5433333333333,-0.151318
"2024",11.5488888888889,-0.116409
"2025",11.5544444444444,-0.151318
"2026",11.56,-0.116409
"2027",11.5655555555556,-0.116409
"2028",11.5711111111111,-0.116409
"2029",11.5766666666667,-0.116409
"2030",11.5822222222222,-0.116409
"2031",11.5877777777778,-0.128045
"2032",11.5933333333333,-0.128045
"2033",11.5988888888889,-0.162955
"2034",11.6044444444444,-0.162955
"2035",11.61,-0.197864
"2036",11.6155555555556,-0.232773
"2037",11.6211111111111,-0.244409
"2038",11.6266666666667,-0.256045
"2039",11.6322222222222,-0.290955
"2040",11.6377777777778,-0.325864
"2041",11.6433333333333,-0.395682
"2042",11.6488888888889,-0.430591
"2043",11.6544444444444,-0.430591
"2044",11.66,-0.442227
"2045",11.6655555555556,-0.477136
"2046",11.6711111111111,-0.442227
"2047",11.6766666666667,-0.477136
"2048",11.6822222222222,-0.477136
